numVotes,Frequency,AverageRating
5,81495,6.931846125529162
6,71193,6.9215709409632815
7,59238,6.88605455957337
8,48710,6.881820981317952
9,41580,6.88809283309287
10,36399,6.8564328690349035
11,31703,6.876030659559113
12,28536,6.868695682646451
13,24834,6.862970121607502
14,22014,6.8796220586899235
15,19911,6.8875144392546686
16,18216,6.891545893719812
17,16862,6.891122049578936
18,15028,6.890271493212659
19,14128,6.887542468856169
20,13225,6.895206049149351
21,12393,6.909021221657292
22,11231,6.904362924049446
23,11076,6.89516070783672
24,10005,6.854592703648168
25,9466,6.901764208747106
26,8690,6.898596087456872
27,8254,6.900096922704153
28,7846,6.886145806780486
29,7281,6.863878588106026
30,6984,6.874298396334488
31,6722,6.89223445403156
32,6358,6.908854985844595
33,5957,6.9158972637233544
34,6014,6.93734619221815
35,6047,7.070530841739741
36,5646,6.930021253985149
37,5405,6.918334875115608
38,5374,7.001135094901332
39,4911,6.930054978619414
40,4649,6.925532372553243
41,4537,6.924355300859602
42,4577,6.962311557788946
43,4293,6.900093174935926
44,4176,6.90749521072798
45,4129,6.9032211189150035
46,3925,6.929248407643316
47,3838,6.936347055758199
48,3729,6.942719227674964
49,3687,6.898996474098182
50,3444,6.9304006968641225
51,3326,6.8742333132892375
52,3307,6.892772905957057
53,3175,6.918960629921261
54,3164,6.9417825537294515
55,3018,6.8899933730947645
56,2932,6.9670532060027215
57,2851,6.909119607155382
58,2791,6.905123611608736
59,2643,6.9145667801740425
60,2624,6.925304878048787
61,2565,6.927368421052638
62,2566,6.92618862042088
63,2564,6.892394695787821
64,2350,6.968808510638302
65,2386,6.955867560771165
66,2367,6.90553443177017
67,2267,6.913939126599013
68,2145,6.936177156177154
69,2187,6.912437128486515
70,2186,6.92246111619397
71,2099,6.947737017627438
72,2024,6.922826086956535
73,2010,6.921542288557197
74,1960,6.909438775510207
75,1968,6.9431402439024446
76,1927,6.924390243902428
77,1795,6.91961002785515
78,1829,6.926899945325317
79,1712,6.892114485981307
80,1711,6.9202220923436535
81,1665,6.971171171171174
82,1641,6.9594759293114015
83,1671,6.9386594853381185
84,1568,6.956313775510202
85,1616,6.964913366336636
86,1564,6.9549232736572995
87,1511,6.8769688947716725
88,1479,6.9671399594320444
89,1448,7.00801104972376
90,1404,6.980698005698013
91,1454,7.0009628610729004
92,1407,6.902771855010665
93,1343,6.935219657483242
94,1339,6.972218073188946
95,1331,7.003606311044323
96,1327,6.962622456669189
97,1242,6.925764895330122
98,1265,6.981343873517786
99,1232,6.9777597402597475
100,1332,6.721321321321322
101,1299,6.788529638183213
102,1221,6.74471744471745
103,1183,6.7283178360101425
104,1181,6.677561388653678
105,1193,6.710058675607714
106,1102,6.673502722323052
107,1191,6.8146095717884085
108,1115,6.731210762331846
109,1164,6.745189003436425
110,1102,6.764246823956444
111,1104,6.770652173913041
112,1042,6.759021113243767
113,1029,6.662390670553939
114,995,6.705427135678378
115,1023,6.722091886608012
116,1003,6.6885343968095805
117,1015,6.725024630541875
118,935,6.674117647058821
119,1005,6.790248756218907
120,952,6.6339285714285765
121,946,6.676109936575052
122,929,6.660710441334767
123,922,6.777006507592195
124,933,6.676848874598071
125,883,6.746319365798416
126,878,6.7006833712984015
127,887,6.7454340473506145
128,882,6.740929705215415
129,878,6.725284738040997
130,817,6.6014687882496945
131,841,6.683947681331744
132,815,6.634723926380367
133,815,6.709570552147238
134,811,6.7016029593094935
135,754,6.757957559681695
136,773,6.650064683053041
137,811,6.794574599260161
138,815,6.791656441717789
139,787,6.68665819567979
140,769,6.659297789336801
141,742,6.727493261455534
142,749,6.72256341789052
143,756,6.69748677248677
144,754,6.761007957559677
145,718,6.804038997214486
146,740,6.67297297297297
147,707,6.755869872701555
148,686,6.697230320699712
149,772,6.899740932642482
150,714,6.738235294117648
151,692,6.748699421965323
152,751,6.805326231691072
153,723,6.643430152143844
154,689,6.78955007256894
155,659,6.757511380880114
156,667,6.676911544227885
157,702,6.719373219373216
158,701,6.754065620542077
159,658,6.78343465045593
160,711,6.656821378340368
161,687,6.790393013100435
162,680,6.764411764705874
163,635,6.820000000000003
164,675,6.7900740740740675
165,657,6.803805175038054
166,623,6.8454253611556934
167,619,6.736672051696284
168,640,6.809843749999999
169,642,6.7604361370716575
170,629,6.879332273449921
171,617,6.75640194489465
172,615,6.7554471544715495
173,601,6.849916805324456
174,635,6.713070866141734
175,590,6.728644067796609
176,571,6.844133099824871
177,617,6.807941653160452
178,562,6.867081850533804
179,565,6.826017699115041
180,590,6.8454237288135635
181,621,6.775040257648955
182,535,6.722616822429905
183,598,6.787959866220738
184,511,6.889236790606646
185,585,6.788717948717957
186,526,6.872053231939161
187,551,6.774591651542647
188,521,6.6852207293666
189,567,6.812345679012345
190,485,6.8154639175257685
191,518,6.842857142857141
192,533,6.8544090056285185
193,539,6.764007421150272
194,498,6.804216867469884
195,537,6.83091247672254
196,508,6.914173228346458
197,505,6.817821782178214
198,462,6.922510822510822
199,494,6.881376518218624
200,480,6.828750000000003
201,480,6.760416666666666
202,502,6.801195219123506
203,494,6.899392712550603
204,465,6.7486021505376295
205,487,6.856262833675556
206,498,6.790562248995986
207,468,6.843803418803414
208,443,6.946049661399552
209,452,6.861061946902649
210,443,6.893002257336346
211,429,6.715850815850816
212,456,6.779605263157896
213,442,6.790271493212664
214,413,6.719128329297826
215,442,6.760859728506786
216,440,6.799090909090906
217,402,6.816169154228849
218,392,6.688010204081634
219,368,6.828532608695654
220,385,6.754285714285717
221,405,6.741975308641979
222,420,6.6876190476190445
223,410,6.763414634146347
224,420,6.855714285714281
225,429,6.7146853146853145
226,406,6.749507389162562
227,386,6.873575129533679
228,403,6.724317617866004
229,395,6.7367088607594905
230,389,6.760154241645242
231,391,6.73631713554987
232,403,6.775186104218359
233,338,6.72218934911242
234,401,6.665586034912713
235,390,6.746153846153847
236,362,6.6707182320442
237,387,6.702842377260976
238,389,6.750899742930592
239,363,6.622589531680443
240,363,6.7738292011019245
241,364,6.74505494505494
242,351,6.806267806267804
243,357,6.695518207282919
244,383,6.7404699738903355
245,366,6.825683060109287
246,373,6.855495978552276
247,331,6.670694864048335
248,354,6.75847457627119
249,353,6.765155807365436
250,278,7.036330935251799
251,331,6.772507552870097
252,349,6.804584527220631
253,333,6.582282282282285
254,373,6.788739946380689
255,303,6.675577557755772
256,352,6.77215909090909
257,342,6.70233918128655
258,321,6.7588785046728965
259,333,6.73843843843844
260,326,6.90184049079755
261,317,6.784227129337538
262,317,6.8492113564668795
263,333,6.917717717717716
264,328,6.807317073170728
265,296,6.884797297297303
266,295,6.82813559322034
267,314,6.930891719745223
268,322,6.881987577639749
269,297,6.805050505050502
270,307,6.7811074918566785
271,304,6.861184210526315
272,299,6.923411371237458
273,286,6.654195804195805
274,299,6.75351170568562
275,302,6.699337748344373
276,282,6.749999999999999
277,292,6.898972602739725
278,269,6.918959107806689
279,288,6.856597222222218
280,277,6.832490974729242
281,283,6.916254416961133
282,288,6.8149305555555575
283,281,6.813879003558718
284,310,6.776451612903229
285,259,6.836679536679534
286,269,6.783271375464683
287,254,6.678346456692915
288,288,6.787152777777779
289,273,6.7692307692307745
290,292,6.7523972602739715
291,271,6.7036900369003725
292,251,6.705179282868523
293,278,6.879496402877698
294,299,6.806688963210704
295,273,6.702197802197804
296,271,6.880442804428044
297,263,6.6171102661596946
298,295,6.782711864406777
299,242,6.835950413223143
300,206,6.73155339805825
301,233,6.6532188841201725
302,243,6.766255144032924
303,268,6.825746268656716
304,229,6.6244541484716155
305,230,6.6326086956521735
306,255,6.761176470588236
307,254,6.770866141732284
308,221,6.853393665158376
309,249,6.882730923694782
310,281,6.656227758007119
311,211,6.673933649289099
312,237,6.619409282700429
313,225,6.548444444444444
314,249,6.794377510040163
315,237,6.940084388185655
316,234,6.822222222222223
317,244,6.711475409836064
318,223,6.886098654708518
319,230,6.692608695652174
320,234,6.720940170940176
321,220,6.870454545454543
322,244,6.73729508196721
323,240,6.545833333333331
324,212,6.599999999999999
325,205,6.776585365853662
326,235,6.805531914893618
327,227,6.76343612334802
328,201,6.654228855721392
329,213,6.735680751173712
330,240,6.658750000000002
331,208,6.75240384615385
332,215,6.715348837209304
333,200,6.831999999999997
334,236,6.761440677966103
335,198,6.693939393939393
336,195,6.787179487179486
337,242,6.7669421487603305
338,200,6.7945
339,225,6.720888888888888
340,216,6.700925925925918
341,203,6.862561576354677
342,191,6.846596858638741
343,187,6.83636363636364
344,228,6.790350877192982
345,225,6.593777777777781
346,220,6.73272727272727
347,220,6.7740909090909085
348,185,6.8286486486486435
349,214,6.7607476635514026
350,220,6.586363636363634
351,188,6.745744680851062
352,191,6.538743455497379
353,190,6.872631578947368
354,181,6.726519337016574
355,216,6.80324074074074
356,204,6.709803921568629
357,196,6.821938775510205
358,194,6.84845360824742
359,195,6.630769230769231
360,189,6.589947089947092
361,196,6.688265306122449
362,208,6.875480769230768
363,168,6.779761904761906
364,148,6.558108108108109
365,203,6.7113300492610835
366,172,6.835465116279074
367,164,6.551829268292683
368,155,6.712258064516127
369,175,6.84571428571429
370,173,6.969942196531791
371,182,6.616483516483517
372,174,6.6339080459770114
373,186,6.654301075268819
374,161,6.839130434782608
375,176,6.800568181818181
376,155,6.785806451612909
377,172,6.864534883720932
378,146,6.622602739726028
379,169,6.7502958579881644
380,156,6.630128205128203
381,153,6.747058823529417
382,192,6.556249999999995
383,168,6.6601190476190455
384,184,6.719021739130433
385,175,6.5520000000000005
386,171,6.5175438596491215
387,147,6.6925170068027215
388,146,6.70068493150685
389,151,6.532450331125829
390,160,6.721250000000003
391,161,6.793167701863355
392,158,6.55253164556962
393,144,6.69444444444444
394,149,6.7442953020134215
395,181,6.835911602209944
396,138,6.397101449275361
397,135,6.65111111111111
398,170,6.579411764705877
399,176,6.827840909090913
400,159,6.657861635220127
401,174,6.571839080459768
402,143,6.776923076923076
403,161,6.768944099378881
404,161,6.698136645962732
405,163,6.799999999999999
406,145,6.720000000000004
407,148,6.562837837837835
408,149,6.731543624161074
409,138,6.909420289855071
410,134,6.667164179104481
411,150,6.777333333333337
412,151,6.882119205298015
413,128,6.8187500000000005
414,151,6.619205298013244
415,151,6.602649006622515
416,149,6.771140939597316
417,135,6.702962962962962
418,168,6.8357142857142845
419,136,6.813970588235295
420,124,6.475806451612903
421,138,6.707971014492753
422,146,6.621232876712331
423,143,6.7608391608391605
424,143,6.700699300699303
425,125,6.690399999999998
426,136,6.713235294117647
427,136,6.877205882352942
428,159,6.7817610062893126
429,137,6.605109489051095
430,150,6.65533333333333
431,148,6.875
432,135,6.626666666666666
433,144,6.804166666666667
434,161,6.734161490683229
435,154,6.896103896103898
436,148,6.783783783783786
437,143,6.9293706293706245
438,136,6.760294117647058
439,124,6.846774193548388
440,126,6.8277777777777775
441,153,6.787581699346408
442,148,6.907432432432432
443,145,6.748275862068967
444,132,6.56363636363636
445,143,6.920979020979022
446,133,6.842857142857147
447,120,6.868333333333338
448,138,6.870289855072461
449,157,6.9764331210191095
450,138,6.782608695652171
451,141,6.885815602836876
452,122,6.82786885245902
453,111,6.73783783783784
454,120,6.635000000000001
455,153,6.781045751633987
456,128,6.91484375
457,142,6.785915492957749
458,127,6.735433070866144
459,135,6.688888888888889
460,134,6.624626865671644
461,128,6.898437499999998
462,130,6.803076923076924
463,134,7.0
464,139,6.884172661870508
465,129,6.651162790697674
466,141,6.785815602836881
467,114,6.633333333333335
468,123,6.614634146341463
469,130,6.734615384615385
470,126,6.616666666666671
471,123,6.659349593495937
472,151,6.633112582781457
473,104,6.692307692307689
474,115,6.886956521739131
475,121,6.844628099173552
476,123,6.599186991869919
477,113,6.766371681415928
478,135,6.819259259259257
479,129,6.667441860465116
480,120,6.7191666666666645
481,122,6.9180327868852425
482,113,6.903539823008852
483,124,6.769354838709678
484,107,6.7495327102803735
485,125,6.6072
486,125,6.804800000000002
487,135,6.534074074074075
488,136,6.805882352941183
489,107,6.791588785046728
490,125,6.852000000000001
491,118,6.906779661016947
492,119,6.981512605042013
493,114,6.6421052631578945
494,122,6.698360655737702
495,108,6.791666666666665
496,108,6.6231481481481485
497,118,6.4864406779661
498,119,6.933613445378152
499,107,6.672897196261684
500,110,6.731818181818184
501,105,6.731428571428572
502,118,6.5440677966101735
503,106,6.893396226415091
504,100,6.617000000000001
505,97,6.867010309278351
506,107,6.965420560747665
507,122,6.582786885245903
508,99,6.93131313131313
509,109,6.733027522935782
510,100,6.880999999999995
511,114,6.775438596491229
512,105,6.620000000000003
513,93,6.65591397849462
514,119,6.645378151260507
515,103,6.695145631067963
516,109,6.887155963302753
517,106,6.644339622641512
518,89,6.604494382022471
519,107,7.030841121495326
520,124,6.976612903225811
521,111,6.546846846846843
522,108,6.412962962962963
523,105,6.61047619047619
524,115,6.599130434782609
525,106,6.808490566037734
526,113,6.702654867256638
527,106,6.814150943396226
528,106,6.654716981132076
529,124,6.662903225806452
530,98,6.63877551020408
531,120,6.865833333333332
532,102,6.9872549019607835
533,120,6.867500000000001
534,90,6.667777777777781
535,131,6.873282442748092
536,99,6.895959595959598
537,108,6.575
538,116,6.8353448275862085
539,106,6.722641509433959
540,101,6.787128712871287
541,100,7.087000000000004
542,115,6.744347826086956
543,109,6.811926605504588
544,106,6.879245283018867
545,98,6.898979591836738
546,102,6.613725490196077
547,101,7.039603960396036
548,100,6.970000000000002
549,90,6.749999999999999
550,103,7.004854368932039
551,109,6.79816513761468
552,112,6.599107142857143
553,98,6.51734693877551
554,106,6.807547169811323
555,95,6.850526315789476
556,90,6.953333333333335
557,85,6.942352941176471
558,79,6.572151898734175
559,94,6.856382978723403
560,104,6.750000000000001
561,82,6.603658536585365
562,99,6.994949494949495
563,115,6.741739130434779
564,96,6.712500000000001
565,82,6.913414634146343
566,119,6.679831932773108
567,90,6.802222222222222
568,89,6.867415730337076
569,98,7.12244897959184
570,107,6.852336448598128
571,90,6.814444444444443
572,118,6.902542372881358
573,86,6.865116279069764
574,105,6.574285714285716
575,86,6.313953488372093
576,90,6.9266666666666685
577,101,6.780198019801978
578,86,6.759302325581394
579,97,6.89278350515464
580,76,6.76578947368421
581,93,7.01827956989247
582,89,6.910112359550561
583,110,6.915454545454545
584,84,6.990476190476191
585,100,6.916999999999999
586,99,6.642424242424242
587,93,6.916129032258065
588,110,7.136363636363634
589,88,7.004545454545456
590,79,6.556962025316454
591,93,6.653763440860217
592,78,6.938461538461538
593,95,7.033684210526317
594,90,6.5777777777777775
595,89,6.810112359550561
596,87,6.870114942528736
597,98,6.905102040816324
598,95,6.950526315789477
599,97,7.110309278350516
600,91,6.756043956043955
601,84,6.932142857142857
602,89,6.92808988764045
603,98,6.887755102040819
604,64,6.715625
605,93,6.7870967741935475
606,84,7.003571428571426
607,78,6.87051282051282
608,90,6.644444444444442
609,84,6.686904761904761
610,87,6.6896551724137945
611,85,7.003529411764705
612,66,6.834848484848485
613,86,6.709302325581396
614,88,6.556818181818183
615,85,6.3952941176470635
616,86,6.980232558139535
617,79,6.806329113924051
618,81,7.048148148148148
619,90,6.824444444444446
620,74,6.8891891891891905
621,77,6.588311688311687
622,83,6.562650602409639
623,73,6.780821917808218
624,92,6.936956521739131
625,75,6.9346666666666685
626,89,7.177528089887641
627,94,6.529787234042551
628,77,6.9116883116883105
629,80,6.866249999999999
630,82,6.820731707317071
631,99,7.096969696969699
632,82,7.034146341463414
633,96,6.770833333333335
634,77,7.036363636363637
635,78,6.937179487179487
636,76,7.128947368421052
637,89,6.683146067415733
638,87,6.750574712643678
639,80,6.687500000000002
640,69,6.656521739130435
641,65,6.801538461538461
642,71,6.71267605633803
643,79,6.918987341772155
644,75,6.668
645,79,6.8354430379746836
646,81,6.696296296296297
647,72,7.033333333333332
648,92,6.918478260869566
649,76,6.971052631578945
650,62,6.727419354838709
651,75,6.863999999999999
652,75,7.062666666666667
653,73,6.76027397260274
654,73,6.9397260273972625
655,64,6.7953125
656,80,6.808750000000002
657,83,7.000000000000003
658,94,6.946808510638298
659,79,6.992405063291139
660,73,6.958904109589042
661,89,6.755056179775284
662,65,6.992307692307692
663,75,6.688000000000001
664,77,6.731168831168835
665,86,7.082558139534884
666,65,6.7723076923076935
667,78,6.962820512820513
668,83,6.742168674698796
669,84,6.839285714285713
670,91,6.972527472527471
671,58,6.837931034482757
672,68,6.65
673,68,6.805882352941177
674,69,6.536231884057969
675,69,6.862318840579712
676,69,6.8
677,64,6.965624999999999
678,84,6.996428571428571
679,68,6.808823529411764
680,89,7.0460674157303345
681,59,6.8203389830508465
682,75,7.055999999999999
683,68,6.680882352941177
684,84,6.832142857142858
685,73,6.79041095890411
686,75,6.978666666666666
687,86,6.7290697674418585
688,75,6.642666666666667
689,82,6.787804878048776
690,72,6.997222222222224
691,67,6.795522388059701
692,66,6.857575757575757
693,66,6.937878787878791
694,63,6.9444444444444455
695,75,7.036000000000004
696,69,7.034782608695653
697,82,6.808536585365853
698,78,7.110256410256409
699,53,6.845283018867923
700,64,6.9359375
701,65,7.12615384615385
702,73,6.934246575342465
703,71,6.759154929577465
704,69,6.766666666666668
705,69,6.68840579710145
706,61,6.999999999999999
707,64,6.678125
708,88,6.8625000000000025
709,80,6.805000000000002
710,72,6.995833333333334
711,60,7.038333333333335
712,61,7.10983606557377
713,63,7.2206349206349225
714,68,6.799999999999999
715,88,6.803409090909091
716,66,6.862121212121213
717,73,6.77260273972603
718,63,7.036507936507936
719,59,6.820338983050848
720,61,6.783606557377049
721,75,6.777333333333334
722,73,7.0315068493150665
723,71,6.705633802816901
724,79,7.083544303797467
725,79,6.937974683544303
726,60,6.983333333333331
727,85,6.9576470588235315
728,47,6.768085106382979
729,67,6.937313432835821
730,67,7.05671641791045
731,71,6.6845070422535215
732,76,6.847368421052633
733,66,7.103030303030301
734,68,6.879411764705883
735,68,7.157352941176468
736,71,6.8464788732394375
737,67,6.792537313432834
738,68,7.204411764705884
739,57,6.75438596491228
740,75,7.177333333333336
741,63,6.907936507936508
742,65,6.932307692307692
743,52,7.107692307692308
744,67,7.404477611940299
745,54,6.7
746,66,6.757575757575758
747,56,6.448214285714285
748,58,7.181034482758621
749,58,7.079310344827586
750,72,6.833333333333332
751,53,6.622641509433963
752,66,6.822727272727272
753,54,6.531481481481482
754,62,7.158064516129032
755,65,7.116923076923077
756,50,6.889999999999997
757,67,7.068656716417909
758,59,6.952542372881355
759,72,7.0472222222222225
760,72,7.022222222222222
761,62,6.475806451612905
762,61,6.973770491803277
763,68,6.902941176470589
764,52,6.571153846153846
765,51,6.617647058823531
766,53,7.1301886792452835
767,66,7.193939393939395
768,64,6.681250000000003
769,74,7.066216216216217
770,64,6.8859375
771,56,6.8607142857142875
772,70,6.878571428571428
773,62,6.65483870967742
774,55,6.690909090909092
775,64,6.723437500000002
776,67,6.93134328358209
777,48,7.166666666666668
778,61,7.088524590163936
779,50,7.008000000000001
780,63,6.40952380952381
781,71,6.970422535211266
782,73,6.880821917808217
783,62,7.06290322580645
784,51,6.782352941176469
